

lambda(nm), Y
740, 0.301519
740.067, 0.301522
740.133, 0.301524
740.2, 0.301527
740.267, 0.301531
740.333, 0.301534
740.4, 0.301538
740.467, 0.301542
740.533, 0.301547
740.6, 0.301552
740.667, 0.301556
740.733, 0.301562
740.8, 0.301567
740.867, 0.301573
740.933, 0.301579
741, 0.301585
741.067, 0.301592
741.133, 0.301599
741.2, 0.301606
741.267, 0.301613
741.333, 0.30162
741.4, 0.301628
741.467, 0.301636
741.533, 0.301644
741.6, 0.301653
741.667, 0.301662
741.733, 0.301671
741.8, 0.30168
741.867, 0.301689
741.933, 0.301699
742, 0.301709
742.067, 0.301719
742.133, 0.301729
742.2, 0.301739
742.267, 0.30175
742.333, 0.301761
742.4, 0.301772
742.467, 0.301783
742.533, 0.301795
742.6, 0.301807
742.667, 0.301818
742.733, 0.301831
742.8, 0.301843
742.867, 0.301855
742.933, 0.301868
743, 0.301881
743.067, 0.301894
743.133, 0.301907
743.2, 0.30192
743.267, 0.301934
743.333, 0.301947
743.4, 0.301961
743.467, 0.301975
743.533, 0.30199
743.6, 0.302004
743.667, 0.302018
743.733, 0.302033
743.8, 0.302048
743.867, 0.302063
743.933, 0.302078
744, 0.302094
744.067, 0.302109
744.133, 0.302125
744.2, 0.30214
744.267, 0.302156
744.333, 0.302173
744.4, 0.302189
744.467, 0.302205
744.533, 0.302222
744.6, 0.302239
744.667, 0.302255
744.733, 0.302272
744.8, 0.30229
744.867, 0.302307
744.933, 0.302324
745, 0.302342
745.067, 0.30236
745.133, 0.302378
745.2, 0.302396
745.267, 0.302414
745.333, 0.302433
745.4, 0.302451
745.467, 0.30247
745.533, 0.302489
745.6, 0.302508
745.667, 0.302527
745.733, 0.302547
745.8, 0.302566
745.867, 0.302586
745.933, 0.302606
746, 0.302626
746.067, 0.302647
746.133, 0.302667
746.2, 0.302688
746.267, 0.302709
746.333, 0.30273
746.4, 0.302751
746.467, 0.302773
746.533, 0.302794
746.6, 0.302816
746.667, 0.302838
746.733, 0.302861
746.8, 0.302883
746.867, 0.302906
746.933, 0.302929
747, 0.302952
747.067, 0.302976
747.133, 0.303
747.2, 0.303024
747.267, 0.303048
747.333, 0.303072
747.4, 0.303097
747.467, 0.303122
747.533, 0.303147
747.6, 0.303173
747.667, 0.303198
747.733, 0.303224
747.8, 0.303251
747.867, 0.303277
747.933, 0.303304
748, 0.303332
748.067, 0.303359
748.133, 0.303387
748.2, 0.303415
748.267, 0.303444
748.333, 0.303473
748.4, 0.303502
748.467, 0.303531
748.533, 0.303561
748.6, 0.303592
748.667, 0.303622
748.733, 0.303653
748.8, 0.303684
748.867, 0.303716
748.933, 0.303748
749, 0.303781
749.067, 0.303814
749.133, 0.303847
749.2, 0.303881
749.267, 0.303915
749.333, 0.303949
749.4, 0.303984
749.467, 0.304019
749.533, 0.304055
749.6, 0.304091
749.667, 0.304128
749.733, 0.304165
749.8, 0.304203
749.867, 0.304241
749.933, 0.304279
750, 0.304318
750.067, 0.304358
750.133, 0.304398
750.2, 0.304438
750.267, 0.304479
750.333, 0.304521
750.4, 0.304563
750.467, 0.304605
750.533, 0.304648
750.6, 0.304692
750.667, 0.304736
750.733, 0.30478
750.8, 0.304826
750.867, 0.304871
750.933, 0.304917
751, 0.304964
751.067, 0.305012
751.133, 0.305059
751.2, 0.305108
751.267, 0.305157
751.333, 0.305206
751.4, 0.305257
751.467, 0.305307
751.533, 0.305359
751.6, 0.305411
751.667, 0.305463
751.733, 0.305516
751.8, 0.30557
751.867, 0.305624
751.933, 0.305679
752, 0.305735
752.067, 0.305791
752.133, 0.305847
752.2, 0.305905
752.267, 0.305963
752.333, 0.306021
752.4, 0.30608
752.467, 0.30614
752.533, 0.306201
752.6, 0.306262
752.667, 0.306323
752.733, 0.306386
752.8, 0.306449
752.867, 0.306512
752.933, 0.306576
753, 0.306641
753.067, 0.306707
753.133, 0.306773
753.2, 0.30684
753.267, 0.306907
753.333, 0.306975
753.4, 0.307044
753.467, 0.307113
753.533, 0.307183
753.6, 0.307253
753.667, 0.307324
753.733, 0.307396
753.8, 0.307468
753.867, 0.307541
753.933, 0.307615
754, 0.307689
754.067, 0.307764
754.133, 0.307839
754.2, 0.307916
754.267, 0.307992
754.333, 0.30807
754.4, 0.308147
754.467, 0.308226
754.533, 0.308305
754.6, 0.308385
754.667, 0.308465
754.733, 0.308546
754.8, 0.308627
754.867, 0.308709
754.933, 0.308792
755, 0.308875
755.067, 0.308959
755.133, 0.309043
755.2, 0.309128
755.267, 0.309213
755.333, 0.309299
755.4, 0.309386
755.467, 0.309473
755.533, 0.30956
755.6, 0.309648
755.667, 0.309737
755.733, 0.309826
755.8, 0.309915
755.867, 0.310005
755.933, 0.310096
756, 0.310187
756.067, 0.310278
756.133, 0.31037
756.2, 0.310463
756.267, 0.310556
756.333, 0.310649
756.4, 0.310743
756.467, 0.310837
756.533, 0.310932
756.6, 0.311027
756.667, 0.311122
756.733, 0.311218
756.8, 0.311315
756.867, 0.311411
756.933, 0.311508
757, 0.311606
757.067, 0.311703
757.133, 0.311802
757.2, 0.3119
757.267, 0.311999
757.333, 0.312098
757.4, 0.312197
757.467, 0.312297
757.533, 0.312397
757.6, 0.312498
757.667, 0.312598
757.733, 0.312699
757.8, 0.3128
757.867, 0.312902
757.933, 0.313004
758, 0.313105
758.067, 0.313208
758.133, 0.31331
758.2, 0.313413
758.267, 0.313515
758.333, 0.313618
758.4, 0.313721
758.467, 0.313825
758.533, 0.313928
758.6, 0.314032
758.667, 0.314136
758.733, 0.31424
758.8, 0.314344
758.867, 0.314448
758.933, 0.314552
759, 0.314656
759.067, 0.314761
759.133, 0.314865
759.2, 0.31497
759.267, 0.315074
759.333, 0.315179
759.4, 0.315284
759.467, 0.315389
759.533, 0.315493
759.6, 0.315598
759.667, 0.315703
759.733, 0.315808
759.8, 0.315912
759.867, 0.316017
759.933, 0.316122
760, 0.316226



